# JP Test wave

# Solution by 20-term Fourier series

# Surface of wave - trough-crest-trough, note quadratic point spacing clustered around crest
# Non-dimensionalised with respect to depth
# X/d, eta/d, & check of surface pressure

0.	0.	0. # Dummy point to scale plot

 -4.8448	 0.8961	  1e-12
 -4.3725	 0.8978	 -7e-12
 -3.9243	 0.9030	 -6e-11
 -3.5004	 0.9119	 -1e-10
 -3.1007	 0.9248	 -1e-10
 -2.7252	 0.9422	  2e-10
 -2.3740	 0.9642	  2e-10
 -2.0469	 0.9906	 -3e-10
 -1.7441	 1.0205	  2e-10
 -1.4656	 1.0526	 -6e-11
 -1.2112	 1.0847	 -5e-14
 -0.9811	 1.1148	 -6e-11
 -0.7752	 1.1408	  2e-10
 -0.5935	 1.1616	 -3e-10
 -0.4360	 1.1766	  1e-10
 -0.3028	 1.1864	  1e-10
 -0.1938	 1.1921	 -6e-11
 -0.1090	 1.1948	 -5e-11
 -0.0484	 1.1958	 -1e-11
 -0.0121	 1.1961	  1e-12
  0.0000	 1.1961	  2e-12
  0.0121	 1.1961	  1e-12
  0.0484	 1.1958	 -1e-11
  0.1090	 1.1948	 -5e-11
  0.1938	 1.1921	 -6e-11
  0.3028	 1.1864	  1e-10
  0.4360	 1.1766	  1e-10
  0.5935	 1.1616	 -3e-10
  0.7752	 1.1408	  2e-10
  0.9811	 1.1148	 -6e-11
  1.2112	 1.0847	 -5e-14
  1.4656	 1.0526	 -6e-11
  1.7441	 1.0205	  2e-10
  2.0469	 0.9906	 -3e-10
  2.3740	 0.9642	  2e-10
  2.7252	 0.9422	  2e-10
  3.1007	 0.9248	 -1e-10
  3.5004	 0.9119	 -1e-10
  3.9243	 0.9030	 -6e-11
  4.3725	 0.8978	 -7e-12
  4.8448	 0.8961	  1e-12

